Zeit [ms]	Uin A [V]	Uin B [V]
0.000000000	0.978783026	1.632667513
0.020000000	0.984948686	1.639482191
0.040000000	0.991114346	1.646296868
0.060000000	0.998253531	1.652787037
0.080000000	1.004094682	1.659277206
0.100000000	1.010584851	1.665767376
0.120000000	1.016101494	1.672582053
0.140000000	1.022591662	1.679072223
0.160000000	1.028757322	1.685237883
0.180000000	1.034598473	1.691403544
0.200000000	1.040764133	1.697569205
0.220000000	1.046605285	1.703410357
0.240000000	1.052446436	1.709900526
0.260000000	1.058287588	1.715417170
0.280000000	1.063804231	1.721907340
0.300000000	1.069320874	1.727423984
0.320000000	1.074837517	1.733589644
0.340000000	1.080029652	1.739106288
0.360000000	1.085546295	1.744622932
0.380000000	1.091387446	1.749815068
0.400000000	1.096579581	1.755656220
0.420000000	1.101771716	1.761172864
0.440000000	1.106639342	1.766365000
0.460000000	1.112155985	1.771881644
0.480000000	1.117348120	1.777398288
0.500000000	1.121891237	1.782265915
0.520000000	1.127407881	1.787458051
0.540000000	1.132275507	1.792650186
0.560000000	1.136494116	1.797517813
0.580000000	1.141361743	1.802385440
0.600000000	1.146229369	1.807253068
0.620000000	1.150772487	1.811796186
0.640000000	1.154991096	1.817312830
0.660000000	1.159534214	1.821531441
0.680000000	1.164401840	1.826399068
0.700000000	1.168620450	1.830293169
0.720000000	1.172839059	1.834836288
0.740000000	1.177057669	1.839379407
0.760000000	1.181276278	1.843273509
0.780000000	1.185170379	1.847816627
0.800000000	1.189388989	1.852035238
0.820000000	1.193607598	1.855929339
0.840000000	1.197501699	1.859823441
0.860000000	1.201071292	1.864042051
0.880000000	1.204965393	1.867611645
0.900000000	1.208210477	1.871830255
0.920000000	1.211780070	1.875399848
0.940000000	1.215349662	1.878969442
0.960000000	1.219243764	1.882539035
0.980000000	1.222813356	1.886108628
1.000000000	1.226382949	1.889678222
1.020000000	1.228654508	1.892598798
1.040000000	1.232224100	1.895843883
1.060000000	1.235793693	1.899088968
1.080000000	1.238065252	1.902658561
1.100000000	1.241310336	1.905579138
1.120000000	1.244230912	1.908499714
1.140000000	1.247475996	1.911744799
1.160000000	1.249747555	1.914665375
1.180000000	1.252668131	1.917261443
1.200000000	1.255264199	1.919857511
1.220000000	1.257860266	1.922453579
1.240000000	1.260131825	1.925049647
1.260000000	1.262727892	1.927321207
1.280000000	1.264674943	1.929917275
1.300000000	1.267271010	1.932837851
1.320000000	1.269867078	1.934460394
1.340000000	1.271489620	1.936731953
1.360000000	1.273761179	1.938679004
1.380000000	1.275708229	1.940626055
1.400000000	1.277979788	1.942897614
1.420000000	1.279926839	1.944520157
1.440000000	1.281224873	1.946791716
1.460000000	1.283171923	1.948414259
1.480000000	1.284469957	1.949712293
1.500000000	1.286417007	1.951010327
1.520000000	1.288039550	1.952957378
1.540000000	1.289013075	1.954579920
1.560000000	1.290311109	1.955553446
1.580000000	1.291609142	1.956851480
1.600000000	1.292907176	1.958149514
1.620000000	1.294205210	1.959123039
1.640000000	1.294529718	1.960421073
1.660000000	1.295827752	1.961070090
1.680000000	1.297125786	1.962368124
1.700000000	1.297774802	1.962692633
1.720000000	1.298748328	1.963990667
1.740000000	1.299397345	1.964639684
1.760000000	1.300046361	1.965288701
1.780000000	1.300370870	1.965613209
1.800000000	1.300695378	1.965937718
1.820000000	1.301344395	1.966262226
1.840000000	1.301668904	1.966586735
1.860000000	1.301668904	1.966911243
1.880000000	1.301993412	1.967560260
1.900000000	1.302317920	1.967235752
1.920000000	1.302317920	1.967884769
1.940000000	1.301993412	1.967235752
1.960000000	1.301668904	1.966911243
1.980000000	1.301668904	1.966911243
2.000000000	1.301344395	1.966911243
2.020000000	1.301019887	1.966262226
2.040000000	1.300370870	1.965613209
2.060000000	1.300370870	1.965288701
2.080000000	1.300046361	1.964315175
2.100000000	1.299397345	1.963990667
2.120000000	1.298748328	1.963341650
2.140000000	1.298099311	1.962043616
2.160000000	1.296801277	1.961719107
2.180000000	1.296152260	1.960745582
2.200000000	1.295503243	1.960096565
2.220000000	1.294205210	1.958474022
2.240000000	1.293231684	1.957175988
2.260000000	1.291933651	1.955553446
2.280000000	1.290311109	1.954255412
2.300000000	1.289013075	1.952957378
2.320000000	1.288039550	1.951334835
2.340000000	1.286417007	1.949387784
2.360000000	1.284794465	1.948414259
2.380000000	1.283171923	1.946467208
2.400000000	1.281549381	1.945169174
2.420000000	1.279602330	1.942897614
2.440000000	1.277655280	1.940950563
2.460000000	1.276357246	1.939328021
2.480000000	1.273761179	1.937056461
2.500000000	1.271489620	1.935109410
2.520000000	1.269867078	1.932837851
2.540000000	1.267920027	1.930241783
2.560000000	1.265323960	1.927645715
2.580000000	1.263052401	1.925374156
2.600000000	1.260456333	1.922778088
2.620000000	1.257860266	1.920182020
2.640000000	1.255264199	1.917585952
2.660000000	1.253317148	1.914989884
2.680000000	1.250721081	1.911744799
2.700000000	1.248125013	1.909148731
2.720000000	1.244555421	1.906228155
2.740000000	1.241310336	1.902658561
2.760000000	1.239038777	1.900062493
2.780000000	1.236118202	1.897141917
2.800000000	1.232548609	1.893247815
2.820000000	1.229628033	1.890002730
2.840000000	1.226058440	1.887082154
2.860000000	1.223462373	1.882863544
2.880000000	1.219892780	1.879942967
2.900000000	1.216647696	1.875724357
2.920000000	1.213402612	1.872479272
2.940000000	1.209508511	1.868909679
2.960000000	1.205614410	1.865015577
2.980000000	1.201720309	1.861121475
3.000000000	1.198150716	1.856902865
3.020000000	1.194256615	1.852684255
3.040000000	1.190687022	1.848790153
3.060000000	1.186468413	1.844896051
3.080000000	1.182249803	1.841001949
3.100000000	1.178355702	1.836134322
3.120000000	1.173812585	1.831915712
3.140000000	1.169593975	1.827048085
3.160000000	1.165699874	1.822829474
3.180000000	1.161156756	1.817961847
3.200000000	1.156938147	1.813418729
3.220000000	1.152070520	1.808551101
3.240000000	1.147851911	1.803683474
3.260000000	1.143308793	1.798815847
3.280000000	1.138441167	1.793948220
3.300000000	1.133573540	1.788756084
3.320000000	1.129030423	1.783888457
3.340000000	1.123513780	1.779020830
3.360000000	1.119295170	1.773828695
3.380000000	1.113778527	1.768312051
3.400000000	1.109235409	1.762470898
3.420000000	1.103394258	1.757278763
3.440000000	1.098851140	1.752086627
3.460000000	1.093009988	1.746569983
3.480000000	1.087817854	1.740728831
3.500000000	1.082301211	1.735212187
3.520000000	1.077109076	1.729371034
3.540000000	1.071592433	1.723854390
3.560000000	1.065751281	1.717688730
3.580000000	1.060234638	1.712496594
3.600000000	1.054393487	1.706006425
3.620000000	1.048876844	1.699840764
3.640000000	1.042386675	1.693675103
3.660000000	1.036870032	1.687509442
3.680000000	1.030704372	1.681668290
3.700000000	1.025187729	1.674529104
3.720000000	1.019346578	1.669012460
3.740000000	1.013180918	1.661873274
3.760000000	1.006366241	1.655383105
3.780000000	1.000849598	1.649217444
3.800000000	0.994034922	1.642402767
3.820000000	0.987869262	1.635263581
3.840000000	0.981379094	1.628773411
3.860000000	0.974888925	1.621958734
3.880000000	0.968398757	1.614819548
3.900000000	0.961584080	1.608004870
3.920000000	0.955418420	1.600865684
3.940000000	0.948603744	1.594051007
3.960000000	0.941789067	1.586262804
3.980000000	0.934974390	1.579772635
4.000000000	0.928159714	1.572308941
4.020000000	0.921020529	1.565169755
4.040000000	0.913881344	1.557706061
4.060000000	0.907066667	1.549593349
4.080000000	0.899927482	1.542454164
4.100000000	0.892788297	1.535314978
4.120000000	0.885000095	1.527526775
4.140000000	0.878509927	1.519738572
4.160000000	0.871046233	1.512274878
4.180000000	0.863582540	1.504162167
4.200000000	0.856767863	1.496049456
4.220000000	0.848655153	1.488585762
4.240000000	0.841191459	1.480473051
4.260000000	0.833727766	1.472360340
4.280000000	0.825939564	1.464247629
4.300000000	0.818475871	1.456134918
4.320000000	0.810687669	1.447697698
4.340000000	0.802899467	1.439584987
4.360000000	0.794786757	1.431796785
4.380000000	0.787647572	1.423035057
4.400000000	0.779210353	1.414597838
4.420000000	0.771746660	1.406160618
4.440000000	0.763309441	1.398047908
4.460000000	0.755845747	1.389286180
4.480000000	0.747408529	1.380848961
4.500000000	0.739295818	1.372087233
4.520000000	0.731183108	1.363000997
4.540000000	0.723394906	1.354888286
4.560000000	0.714957688	1.345477541
4.580000000	0.706844977	1.336715814
4.600000000	0.698407759	1.327629578
4.620000000	0.689646031	1.318867850
4.640000000	0.681208813	1.310430631
4.660000000	0.672771594	1.300695378
4.680000000	0.664658884	1.291933651
4.700000000	0.656221665	1.282522906
4.720000000	0.647459938	1.273112162
4.740000000	0.638698211	1.263701418
4.760000000	0.630260992	1.253966165
4.780000000	0.621823773	1.245204437
4.800000000	0.612737538	1.235793693
4.820000000	0.603651302	1.226058440
4.840000000	0.595538592	1.216647696
4.860000000	0.586452356	1.206912443
4.880000000	0.577690629	1.197501699
4.900000000	0.568928902	1.188090955
4.920000000	0.559518158	1.178355702
4.940000000	0.550431922	1.168620450
4.960000000	0.541994704	1.158885197
4.980000000	0.532908468	1.148825436
5.000000000	0.523497724	1.139090184
5.020000000	0.514411488	1.128705914
5.040000000	0.505325253	1.118970662
5.060000000	0.495914509	1.109235409
5.080000000	0.487152781	1.098526631
5.100000000	0.478066546	1.088466870
5.120000000	0.468980310	1.078082601
5.140000000	0.459569566	1.068671857
5.160000000	0.450483330	1.057963079
5.180000000	0.441072586	1.047578810
5.200000000	0.431986350	1.037519049
5.220000000	0.422900115	1.027134780
5.240000000	0.413164862	1.016750511
5.260000000	0.403429609	1.006366241
5.280000000	0.394992391	0.995981972
5.300000000	0.385581646	0.984948686
5.320000000	0.376170902	0.974564417
5.340000000	0.366760158	0.963855639
5.360000000	0.356375888	0.953471370
5.380000000	0.347938669	0.942762592
5.400000000	0.338203417	0.932378323
5.420000000	0.328468164	0.921345037
5.440000000	0.319706436	0.910311751
5.460000000	0.309971184	0.899602974
5.480000000	0.300884948	0.889218704
5.500000000	0.291474203	0.877860910
5.520000000	0.282063459	0.867152132
5.540000000	0.272003698	0.855794338
5.560000000	0.263566479	0.844761052
5.580000000	0.253506717	0.834052274
5.600000000	0.245069498	0.823018988
5.620000000	0.235658754	0.811661194
5.640000000	0.226248009	0.800627908
5.660000000	0.216837265	0.789594622
5.680000000	0.208075537	0.777912319
5.700000000	0.198664793	0.766879033
5.720000000	0.189578557	0.755521239
5.740000000	0.180816829	0.744163445
5.760000000	0.172055101	0.733130159
5.780000000	0.162644357	0.721447856
5.800000000	0.153882629	0.710090061
5.820000000	0.145445409	0.698732267
5.840000000	0.136683682	0.687049964
5.860000000	0.128246462	0.675692170
5.880000000	0.119809243	0.664009867
5.900000000	0.111372023	0.652327564
5.920000000	0.102934804	0.640969770
5.940000000	0.095471110	0.628962958
5.960000000	0.087358399	0.617280656
5.980000000	0.080543722	0.605273844
6.000000000	0.072755519	0.593591541
6.020000000	0.065940842	0.581260222
6.040000000	0.059126164	0.569577919
6.060000000	0.052311487	0.557895616
6.080000000	0.046470335	0.545888805
6.100000000	0.040304675	0.533557485
6.120000000	0.035112539	0.521226165
6.140000000	0.030569421	0.509219354
6.160000000	0.025052778	0.496239017
6.180000000	0.025701795	0.484232206
6.200000000	0.019536134	0.472225394
6.220000000	0.016615558	0.459569566
6.240000000	0.011098914	0.446589229
6.260000000	0.002661695	0.434582418
6.280000000	0.008178338	0.422251098
6.300000000	0.011098914	0.408621744
6.320000000	0.001039152	0.396290424
6.340000000	0.002986203	0.383310087
6.360000000	0.004284237	0.370329751
6.380000000	0.002012678	0.357998430
6.400000000	0.003959728	0.345018094
6.420000000	0.002012678	0.332037757
6.440000000	0.001363661	0.320030945
6.460000000	0.002986203	0.306077083
6.480000000	0.000390136	0.293745762
6.500000000	0.001039152	0.280440917
6.520000000	-0.002205932	0.267460580
6.540000000	0.000065627	0.254480243
6.560000000	0.002012678	0.241499906
6.580000000	0.001688169	0.228519568
6.600000000	0.002661695	0.214241197
6.620000000	-0.007722576	0.202234385
6.640000000	0.001363661	0.188929540
6.660000000	-0.005126508	0.175300186
6.680000000	-0.001881424	0.162968865
6.700000000	0.000390136	0.150637544
6.720000000	-0.000907898	0.136359173
6.740000000	-0.001232407	0.124027853
6.760000000	0.000065627	0.111047515
6.780000000	0.001688169	0.098716194
6.800000000	0.005582271	0.084437823
6.820000000	0.001039152	0.071781994
6.840000000	-0.000907898	0.057503622
6.860000000	0.002986203	0.045821318
6.880000000	0.003959728	0.033489997
6.900000000	0.001688169	0.018887117
6.920000000	-0.004477491	0.006231288
6.940000000	0.001039152	-0.006749050
6.960000000	-0.000907898	-0.017782338
6.980000000	0.002012678	-0.032709726
7.000000000	-0.000258881	-0.045690065
7.020000000	0.001039152	-0.059968437
7.040000000	-0.001556915	-0.071650741
7.060000000	-0.000258881	-0.085280096
7.080000000	-0.001556915	-0.098260435
7.100000000	0.003635220	-0.111565281
7.120000000	-0.000258881	-0.124221112
7.140000000	0.000390136	-0.137850467
7.160000000	0.000065627	-0.150830806
7.180000000	0.000065627	-0.163486636
7.200000000	0.001039152	-0.176466974
7.220000000	0.000065627	-0.189122805
7.240000000	0.000714644	-0.202427652
7.260000000	0.000714644	-0.215732499
7.280000000	0.000390136	-0.228388330
7.300000000	0.000065627	-0.241368669
7.320000000	0.000714644	-0.254349008
7.340000000	0.000065627	-0.267329347
7.360000000	0.001039152	-0.280309687
7.380000000	0.000390136	-0.293614534
7.400000000	0.000714644	-0.306270365
7.420000000	0.000714644	-0.319250705
7.440000000	0.000065627	-0.332231044
7.460000000	0.000714644	-0.344886875
7.480000000	-0.000583390	-0.357867215
7.500000000	0.000390136	-0.370523046
7.520000000	0.000065627	-0.384152403
7.540000000	0.001039152	-0.396483726
7.560000000	0.000714644	-0.409139557
7.580000000	0.000714644	-0.422119897
7.600000000	0.001039152	-0.434775729
7.620000000	0.000714644	-0.447431561
7.640000000	0.000065627	-0.460736409
7.660000000	-0.000258881	-0.473067733
7.680000000	0.001688169	-0.486048073
7.700000000	0.001039152	-0.499028414
7.720000000	0.001039152	-0.511684246
7.740000000	0.000390136	-0.523691061
7.760000000	0.000714644	-0.536671402
7.780000000	0.000714644	-0.549976251
7.800000000	0.001039152	-0.562307575
7.820000000	0.001039152	-0.574638899
7.840000000	0.000714644	-0.586970223
7.860000000	-0.000258881	-0.599626056
7.880000000	0.000714644	-0.611957380
7.900000000	0.000714644	-0.624288704
7.920000000	0.000714644	-0.637269046
7.940000000	-0.000258881	-0.649600370
7.960000000	-0.000258881	-0.661931695
7.980000000	0.002012678	-0.674263019
8.000000000	0.001039152	-0.686269835
8.020000000	-0.000583390	-0.699250177
8.040000000	0.000390136	-0.711256994
8.060000000	0.000714644	-0.723263810
8.080000000	0.000714644	-0.735270627
8.100000000	0.001363661	-0.747277443
8.120000000	0.000714644	-0.759933277
8.140000000	0.000390136	-0.772264602
8.160000000	-0.000258881	-0.784920436
8.180000000	0.000714644	-0.796602745
8.200000000	0.001039152	-0.808609562
8.220000000	-0.000258881	-0.819967362
8.240000000	0.001039152	-0.832298687
8.260000000	0.000714644	-0.844630013
8.280000000	0.001688169	-0.856312322
8.300000000	-0.000258881	-0.868319140
8.320000000	0.000390136	-0.880650466
8.340000000	0.000714644	-0.892332775
8.360000000	0.000714644	-0.904015084
8.380000000	0.000714644	-0.915372885
8.400000000	0.001039152	-0.927704211
8.420000000	0.000390136	-0.939711029
8.440000000	0.000714644	-0.951068830
8.460000000	-0.000258881	-0.962751140
8.480000000	0.000714644	-0.973459924
8.500000000	0.000390136	-0.985791251
8.520000000	0.000714644	-0.996824543
8.540000000	0.000714644	-1.008506853
8.560000000	0.000390136	-1.019864655
8.580000000	0.000390136	-1.031546965
8.600000000	-0.000258881	-1.042255749
8.620000000	-0.000583390	-1.053938060
8.640000000	0.000714644	-1.064971353
8.660000000	0.000714644	-1.076653663
8.680000000	-0.000258881	-1.087686957
8.700000000	-0.000258881	-1.098720250
8.720000000	0.000065627	-1.110078052
8.740000000	0.000714644	-1.120786837
8.760000000	0.000390136	-1.131820131
8.780000000	-0.000258881	-1.142853425
8.800000000	0.001363661	-1.153886719
8.820000000	0.000065627	-1.164595504
8.840000000	0.000390136	-1.175304290
8.860000000	0.001363661	-1.186662092
8.880000000	0.000714644	-1.197046369
8.900000000	0.001039152	-1.207430646
8.920000000	0.000714644	-1.218788450
8.940000000	0.000714644	-1.229497235
8.960000000	0.001039152	-1.239232495
8.980000000	0.001039152	-1.250265790
9.000000000	0.000065627	-1.260001050
9.020000000	0.000390136	-1.270709836
9.040000000	0.000065627	-1.282067640
9.060000000	-0.000258881	-1.291802900
9.080000000	0.001039152	-1.301213652
9.100000000	0.000065627	-1.311922439
9.120000000	0.001688169	-1.321657699
9.140000000	-0.000258881	-1.332366486
9.160000000	0.000714644	-1.341777238
9.180000000	0.000714644	-1.352161516
9.200000000	0.001039152	-1.362545795
9.220000000	0.000714644	-1.372281056
9.240000000	-0.000258881	-1.381691808
9.260000000	-0.000258881	-1.391751578
9.280000000	0.000390136	-1.400837822
9.300000000	0.000390136	-1.411222101
9.320000000	0.001363661	-1.420957362
9.340000000	0.000714644	-1.430043606
9.360000000	0.001039152	-1.439778868
9.380000000	0.001039152	-1.449189620
9.400000000	0.001688169	-1.458600373
9.420000000	0.000390136	-1.467686618
9.440000000	0.000065627	-1.477746388
9.460000000	0.000065627	-1.486508124
9.480000000	0.000065627	-1.495594369
9.500000000	0.000390136	-1.505005122
9.520000000	0.000714644	-1.513766858
9.540000000	0.001039152	-1.522853103
9.560000000	0.002661695	-1.531614839
9.580000000	-0.000258881	-1.540701084
9.600000000	0.000390136	-1.549462820
9.620000000	0.000390136	-1.558224556
9.640000000	0.000714644	-1.566661784
9.660000000	0.000390136	-1.575099012
9.680000000	0.000714644	-1.584185257
9.700000000	-0.000258881	-1.592946994
9.720000000	0.000390136	-1.600410695
9.740000000	0.000065627	-1.609172432
9.760000000	-0.000258881	-1.617609660
9.780000000	0.000390136	-1.625722379
9.800000000	0.001039152	-1.633835099
9.820000000	-0.000258881	-1.642596836
9.840000000	-0.000258881	-1.650385046
9.860000000	0.000390136	-1.658497766
9.880000000	0.000714644	-1.666285977
9.900000000	0.002337186	-1.673749679
9.920000000	0.001363661	-1.681862399
9.940000000	0.001039152	-1.689975118
9.960000000	0.000714644	-1.697114312
9.980000000	0.000065627	-1.704902523
10.000000000	0.000390136	-1.712690734
10.020000000	0.000714644	-1.719505419
10.040000000	0.000714644	-1.727293630
10.060000000	0.001363661	-1.734757333
10.080000000	0.000390136	-1.741572018
10.100000000	-0.000258881	-1.748711212
10.120000000	0.000390136	-1.756174914
10.140000000	0.000714644	-1.763314108
10.160000000	0.000714644	-1.770453302
10.180000000	0.000714644	-1.777267988
10.200000000	0.000065627	-1.784407182
10.220000000	0.000714644	-1.790572849
10.240000000	0.000714644	-1.797712043
10.260000000	0.001039152	-1.804202220
10.280000000	0.001039152	-1.810692397
10.300000000	0.001039152	-1.816858064
10.320000000	0.001039152	-1.823348241
10.340000000	0.001039152	-1.830811944
10.360000000	0.000390136	-1.836004086
10.380000000	0.001039152	-1.843143280
10.400000000	0.000390136	-1.849308948
10.420000000	0.000390136	-1.855150108
10.440000000	0.000390136	-1.860666758
10.460000000	-0.000258881	-1.867481444
10.480000000	0.000390136	-1.872998094
10.500000000	0.000390136	-1.878514745
10.520000000	0.001039152	-1.884355904
10.540000000	-0.001232407	-1.890197064
10.560000000	0.000390136	-1.895389205
10.580000000	0.000714644	-1.900905856
10.600000000	-0.000258881	-1.907071524
10.620000000	0.000390136	-1.912263666
